time,velocity,angle of road,acceleration,rolling resistance,air resistance,gradient resistance,inertial resistance,total resistance,total power,effective power,battery capacity,range
0.0,0.0,1.0,0,4.115373113263707,0.0,17.958526223964732,0.0,22.07389933722844,0.0,-50.0,100.00396825396825,0
1.0,3.0,1.0,3.0,4.115373113263707,1.7107199999999998,17.958526223964732,330.0,353.78461933722843,1061.3538580116854,1011.3538580116854,99.92370207476097,0
2.0,4.5,1.0,1.5,4.115373113263707,3.849119999999999,17.958526223964732,165.0,190.92301933722842,859.1535870175279,809.1535870175279,99.8594835361088,0
3.0,5.0,1.0,0.5,4.115373113263707,4.752,17.958526223964732,55.0,81.82589933722844,409.12949668614215,359.12949668614215,99.83098119510196,0
4.0,5.5,1.0,0.5,4.115373113263707,5.7499199999999995,17.958526223964732,55.0,82.82381933722844,455.5310063547564,405.5310063547564,99.7987961945976,0
5.0,6.0,1.0,0.5,4.115373113263707,6.842879999999999,17.958526223964732,55.0,83.91677933722843,503.5006760233706,453.5006760233706,99.7628040774529,0
6.0,6.25,1.0,0.25,4.115373113263707,7.425,17.958526223964732,27.5,56.99889933722844,356.24312085767775,306.24312085767775,99.73849906786101,0
7.0,6.5,1.0,0.25,4.115373113263707,8.03088,17.958526223964732,27.5,57.604779337228436,374.4310656919848,324.4310656919848,99.71275057058386,0
8.0,6.5,1.0,0.0,4.115373113263707,8.03088,17.958526223964732,0.0,30.10477933722844,195.68106569198486,145.68106569198486,99.70118858124322,0
9.0,6.5,1.0,0.0,4.115373113263707,8.03088,17.958526223964732,0.0,30.10477933722844,195.68106569198486,145.68106569198486,99.68962659190257,15.777606093813864
10.0,6.5,1.0,0.0,4.115373113263707,8.03088,17.958526223964732,0.0,30.10477933722844,195.68106569198486,145.68106569198486,99.67806460256193,22.825878656457363
11.0,6.5,1.0,0.0,4.115373113263707,8.03088,17.958526223964732,0.0,30.10477933722844,195.68106569198486,145.68106569198486,99.66650261322128,30.85835346849851
12.0,6.5,1.0,0.0,4.115373113263707,8.03088,17.958526223964732,0.0,30.10477933722844,195.68106569198486,145.68106569198486,99.65494062388065,34.956104384531876
13.0,6.5,1.0,0.0,4.115373113263707,8.03088,17.958526223964732,0.0,30.10477933722844,195.68106569198486,145.68106569198486,99.64337863454,40.551683453908744
14.0,6.5,1.0,0.0,4.115373113263707,8.03088,17.958526223964732,0.0,30.10477933722844,195.68106569198486,145.68106569198486,99.63181664519936,48.869911481766394
15.0,6.5,1.0,0.0,4.115373113263707,8.03088,17.958526223964732,0.0,30.10477933722844,195.68106569198486,145.68106569198486,99.62025465585872,54.55151224263774
16.0,6.5,1.0,0.0,4.115373113263707,8.03088,17.958526223964732,0.0,30.10477933722844,195.68106569198486,145.68106569198486,99.60869266651807,62.22079025568022
17.0,6.5,1.0,0.0,4.115373113263707,8.03088,17.958526223964732,0.0,30.10477933722844,195.68106569198486,145.68106569198486,99.59713067717743,62.21356803346651
18.0,6.5,1.0,0.0,4.115373113263707,8.03088,17.958526223964732,0.0,30.10477933722844,195.68106569198486,145.68106569198486,99.58556868783678,62.206345811244276
19.0,6.5,1.0,0.0,4.115373113263707,8.03088,17.958526223964732,0.0,30.10477933722844,195.68106569198486,145.68106569198486,99.57400669849615,62.199123589022065
20.0,6.5,1.0,0.0,4.115373113263707,8.03088,17.958526223964732,0.0,30.10477933722844,195.68106569198486,145.68106569198486,99.5624447091555,62.19190136679984
21.0,6.5,1.0,0.0,4.115373113263707,8.03088,17.958526223964732,0.0,30.10477933722844,195.68106569198486,145.68106569198486,99.55088271981487,62.184679144577615
22.0,6.5,1.0,0.0,4.115373113263707,8.03088,17.958526223964732,0.0,30.10477933722844,195.68106569198486,145.68106569198486,99.53932073047422,62.1774569223554
23.0,6.5,1.0,0.0,4.115373113263707,8.03088,17.958526223964732,0.0,30.10477933722844,195.68106569198486,145.68106569198486,99.52775874113357,62.170234700124674
24.0,6.5,1.0,0.0,4.115373113263707,8.03088,17.958526223964732,0.0,30.10477933722844,195.68106569198486,145.68106569198486,99.51619675179293,62.163012477910954
25.0,6.5,1.0,0.0,4.115373113263707,8.03088,17.958526223964732,0.0,30.10477933722844,195.68106569198486,145.68106569198486,99.50463476245228,62.15579025568873
26.0,6.5,1.0,0.0,4.115373113263707,8.03088,17.958526223964732,0.0,30.10477933722844,195.68106569198486,145.68106569198486,99.49307277311165,62.1485680334665
27.0,6.5,1.0,0.0,4.115373113263707,8.03088,17.958526223964732,0.0,30.10477933722844,195.68106569198486,145.68106569198486,99.481510783771,62.14134581124427
28.0,6.5,1.0,0.0,4.115373113263707,8.03088,17.958526223964732,0.0,30.10477933722844,195.68106569198486,145.68106569198486,99.46994879443035,62.13412358901356
29.0,6.5,1.0,0.0,4.115373113263707,8.03088,17.958526223964732,0.0,30.10477933722844,195.68106569198486,145.68106569198486,99.45838680508972,62.12690136679984
30.0,6.5,1.0,0.0,4.115373113263707,8.03088,17.958526223964732,0.0,30.10477933722844,195.68106569198486,145.68106569198486,99.44682481574907,62.119679144569126
31.0,6.5,1.0,0.0,4.115373113263707,8.03088,17.958526223964732,0.0,30.10477933722844,195.68106569198486,145.68106569198486,99.43526282640843,62.112456922355385
32.0,6.5,1.0,0.0,4.115373113263707,8.03088,17.958526223964732,0.0,30.10477933722844,195.68106569198486,145.68106569198486,99.42370083706778,62.105234700133174
33.0,6.5,1.0,0.0,4.115373113263707,8.03088,17.958526223964732,0.0,30.10477933722844,195.68106569198486,145.68106569198486,99.41213884772715,62.09801247791095
34.0,6.5,1.0,0.0,4.115373113263707,8.03088,17.958526223964732,0.0,30.10477933722844,195.68106569198486,145.68106569198486,99.4005768583865,62.09079025568872
35.0,6.5,1.0,0.0,4.115373113263707,8.03088,17.958526223964732,0.0,30.10477933722844,195.68106569198486,145.68106569198486,99.38901486904585,62.08356803345802
36.0,6.5,1.0,0.0,4.115373113263707,8.03088,17.958526223964732,0.0,30.10477933722844,195.68106569198486,145.68106569198486,99.37745287970522,62.07634581124428
37.0,6.5,1.0,0.0,4.115373113263707,8.03088,17.958526223964732,0.0,30.10477933722844,195.68106569198486,145.68106569198486,99.36589089036457,62.06912358902205
38.0,6.5,1.0,0.0,4.115373113263707,8.03088,17.958526223964732,0.0,30.10477933722844,195.68106569198486,145.68106569198486,99.35432890102393,62.06190136679983
39.0,6.5,1.0,0.0,4.115373113263707,8.03088,17.958526223964732,0.0,30.10477933722844,195.68106569198486,145.68106569198486,99.34276691168328,62.05467914457761
40.0,6.5,1.0,0.0,4.115373113263707,8.03088,17.958526223964732,0.0,30.10477933722844,195.68106569198486,145.68106569198486,99.33120492234265,62.047456922355394
41.0,6.5,1.0,0.0,4.115373113263707,8.03088,17.958526223964732,0.0,30.10477933722844,195.68106569198486,145.68106569198486,99.319642933002,62.04023470013316
42.0,6.5,1.0,0.0,4.115373113263707,8.03088,17.958526223964732,0.0,30.10477933722844,195.68106569198486,145.68106569198486,99.30808094366135,62.03301247790246
43.0,6.5,1.0,0.0,4.115373113263707,8.03088,17.958526223964732,0.0,30.10477933722844,195.68106569198486,145.68106569198486,99.29651895432072,62.025790255688726
44.0,6.5,1.0,0.0,4.115373113263707,8.03088,17.958526223964732,0.0,30.10477933722844,195.68106569198486,145.68106569198486,99.28495696498007,62.018568033466494
45.0,6.5,1.0,0.0,4.115373113263707,8.03088,17.958526223964732,0.0,30.10477933722844,195.68106569198486,145.68106569198486,99.27339497563943,62.01134581124428
46.0,6.5,1.0,0.0,4.115373113263707,8.03088,17.958526223964732,0.0,30.10477933722844,195.68106569198486,145.68106569198486,99.26183298629878,62.00412358902205
47.0,6.5,1.0,0.0,4.115373113263707,8.03088,17.958526223964732,0.0,30.10477933722844,195.68106569198486,145.68106569198486,99.25027099695814,61.996901366791356
48.0,6.5,1.0,0.0,4.115373113263707,8.03088,17.958526223964732,0.0,30.10477933722844,195.68106569198486,145.68106569198486,99.2387090076175,61.989679144577615
49.0,6.5,1.0,0.0,4.115373113263707,8.03088,17.958526223964732,0.0,30.10477933722844,195.68106569198486,145.68106569198486,99.22714701827685,61.98245692234691
50.0,6.5,1.0,0.0,4.115373113263707,8.03088,17.958526223964732,0.0,30.10477933722844,195.68106569198486,145.68106569198486,99.21558502893622,61.97523470013316
51.0,6.5,1.0,0.0,4.115373113263707,8.03088,17.958526223964732,0.0,30.10477933722844,195.68106569198486,145.68106569198486,99.20402303959557,61.968012477910946
52.0,6.5,1.0,0.0,4.115373113263707,8.03088,17.958526223964732,0.0,30.10477933722844,195.68106569198486,145.68106569198486,99.19246105025493,61.96079025568872
53.0,6.5,1.0,0.0,4.115373113263707,8.03088,17.958526223964732,0.0,30.10477933722844,195.68106569198486,145.68106569198486,99.18089906091429,61.953568033466496
54.0,6.5,1.0,0.0,4.115373113263707,8.03088,17.958526223964732,0.0,30.10477933722844,195.68106569198486,145.68106569198486,99.16933707157364,61.94634581123581
55.0,6.5,1.0,0.0,4.115373113263707,8.03088,17.958526223964732,0.0,30.10477933722844,195.68106569198486,145.68106569198486,99.157775082233,61.93912358902206
56.0,6.5,1.0,0.0,4.115373113263707,8.03088,17.958526223964732,0.0,30.10477933722844,195.68106569198486,145.68106569198486,99.14621309289235,61.93190136679983
57.0,6.5,1.0,0.0,4.115373113263707,8.03088,17.958526223964732,0.0,30.10477933722844,195.68106569198486,145.68106569198486,99.13465110355172,61.9246791445776
58.0,6.5,1.0,0.0,4.115373113263707,8.03088,17.958526223964732,0.0,30.10477933722844,195.68106569198486,145.68106569198486,99.12308911421107,61.91745692235539
59.0,6.5,1.0,0.0,4.115373113263707,8.03088,17.958526223964732,0.0,30.10477933722844,195.68106569198486,145.68106569198486,99.11152712487043,61.91023470013317
60.0,6.5,1.0,0.0,4.115373113263707,8.03088,17.958526223964732,0.0,30.10477933722844,195.68106569198486,145.68106569198486,99.09996513552979,61.903012477910934
61.0,6.5,1.0,0.0,4.115373113263707,8.03088,17.958526223964732,0.0,30.10477933722844,195.68106569198486,145.68106569198486,99.08840314618914,61.89579025568026
62.0,6.5,1.0,0.0,4.115373113263707,8.03088,17.958526223964732,0.0,30.10477933722844,195.68106569198486,145.68106569198486,99.0768411568485,61.8885680334665
63.0,6.5,1.0,0.0,4.115373113263707,8.03088,17.958526223964732,0.0,30.10477933722844,195.68106569198486,145.68106569198486,99.06527916750785,61.881345811244266
64.0,6.5,1.0,0.0,4.115373113263707,8.03088,17.958526223964732,0.0,30.10477933722844,195.68106569198486,145.68106569198486,99.05371717816722,61.87412358902205
65.0,6.5,1.0,0.0,4.115373113263707,8.03088,17.958526223964732,0.0,30.10477933722844,195.68106569198486,145.68106569198486,99.04215518882657,61.86690136679982
66.0,6.5,1.0,0.0,4.115373113263707,8.03088,17.958526223964732,0.0,30.10477933722844,195.68106569198486,145.68106569198486,99.03059319948592,61.85967914456915
67.0,6.5,1.0,0.0,4.115373113263707,8.03088,17.958526223964732,0.0,30.10477933722844,195.68106569198486,145.68106569198486,99.01903121014529,61.85245692235538
68.0,6.5,1.0,0.0,4.115373113263707,8.03088,17.958526223964732,0.0,30.10477933722844,195.68106569198486,145.68106569198486,99.00746922080464,61.845234700124706
69.0,6.5,1.0,0.0,4.115373113263707,8.03088,17.958526223964732,0.0,30.10477933722844,195.68106569198486,145.68106569198486,98.995907231464,61.83801247791094
70.0,6.5,1.0,0.0,4.115373113263707,8.03088,17.958526223964732,0.0,30.10477933722844,195.68106569198486,145.68106569198486,98.98434524212335,61.830790255688704
71.0,6.5,1.0,0.0,4.115373113263707,8.03088,17.958526223964732,0.0,30.10477933722844,195.68106569198486,145.68106569198486,98.97278325278272,61.8235680334665
72.0,6.5,1.0,0.0,4.115373113263707,8.03088,17.958526223964732,0.0,30.10477933722844,195.68106569198486,145.68106569198486,98.96122126344207,61.81634581124427
73.0,6.5,1.0,0.0,4.115373113263707,8.03088,17.958526223964732,0.0,30.10477933722844,195.68106569198486,145.68106569198486,98.94965927410142,61.809123589013595
74.0,6.5,1.0,0.0,4.115373113263707,8.03088,17.958526223964732,0.0,30.10477933722844,195.68106569198486,145.68106569198486,98.93809728476079,61.80190136679983
75.0,6.5,1.0,0.0,4.115373113263707,8.03088,17.958526223964732,0.0,30.10477933722844,195.68106569198486,145.68106569198486,98.92653529542014,61.7946791445776
76.0,6.5,1.0,0.0,4.115373113263707,8.03088,17.958526223964732,0.0,30.10477933722844,195.68106569198486,145.68106569198486,98.9149733060795,61.78745692235538
77.0,6.5,1.0,0.0,4.115373113263707,8.03088,17.958526223964732,0.0,30.10477933722844,195.68106569198486,145.68106569198486,98.90341131673885,61.780234700133164
78.0,6.5,1.0,0.0,4.115373113263707,8.03088,17.958526223964732,0.0,30.10477933722844,195.68106569198486,145.68106569198486,98.89184932739822,61.773012477910946
79.0,6.5,1.0,0.0,4.115373113263707,8.03088,17.958526223964732,0.0,30.10477933722844,195.68106569198486,145.68106569198486,98.88028733805757,61.765790255688714
80.0,6.5,1.0,0.0,4.115373113263707,8.03088,17.958526223964732,0.0,30.10477933722844,195.68106569198486,145.68106569198486,98.86872534871692,61.75856803345805
81.0,6.5,1.0,0.0,4.115373113263707,8.03088,17.958526223964732,0.0,30.10477933722844,195.68106569198486,145.68106569198486,98.85716335937629,61.75134581124428
82.0,6.5,1.0,0.0,4.115373113263707,8.03088,17.958526223964732,0.0,30.10477933722844,195.68106569198486,145.68106569198486,98.84560137003564,61.744123589022045
83.0,6.5,1.0,0.0,4.115373113263707,8.03088,17.958526223964732,0.0,30.10477933722844,195.68106569198486,145.68106569198486,98.834039380695,61.73690136679982
84.0,6.5,1.0,0.0,4.115373113263707,8.03088,17.958526223964732,0.0,30.10477933722844,195.68106569198486,145.68106569198486,98.82247739135435,61.7296791445776
85.0,6.5,1.0,0.0,4.115373113263707,8.03088,17.958526223964732,0.0,30.10477933722844,195.68106569198486,145.68106569198486,98.8109154020137,61.72245692234694
86.0,6.5,1.0,0.0,4.115373113263707,8.03088,17.958526223964732,0.0,30.10477933722844,195.68106569198486,145.68106569198486,98.79935341267307,61.71523470013315
87.0,6.5,1.0,0.0,4.115373113263707,8.03088,17.958526223964732,0.0,30.10477933722844,195.68106569198486,145.68106569198486,98.78779142333242,61.7080124779025
88.0,6.5,1.0,0.0,4.115373113263707,8.03088,17.958526223964732,0.0,30.10477933722844,195.68106569198486,145.68106569198486,98.77622943399179,61.70079025568871
89.0,6.5,1.0,0.0,4.115373113263707,8.03088,17.958526223964732,0.0,30.10477933722844,195.68106569198486,145.68106569198486,98.76466744465114,61.69356803346648
90.0,6.5,1.0,0.0,4.115373113263707,8.03088,17.958526223964732,0.0,30.10477933722844,195.68106569198486,145.68106569198486,98.7531054553105,61.686345811244266
91.0,6.5,1.0,0.0,4.115373113263707,8.03088,17.958526223964732,0.0,30.10477933722844,195.68106569198486,145.68106569198486,98.74154346596985,61.67912358902204
92.0,6.5,1.0,0.0,4.115373113263707,8.03088,17.958526223964732,0.0,30.10477933722844,195.68106569198486,145.68106569198486,98.7299814766292,61.671901366791396
93.0,6.5,1.0,0.0,4.115373113263707,8.03088,17.958526223964732,0.0,30.10477933722844,195.68106569198486,145.68106569198486,98.71841948728857,61.6646791445776
94.0,6.5,1.0,0.0,4.115373113263707,8.03088,17.958526223964732,0.0,30.10477933722844,195.68106569198486,145.68106569198486,98.70685749794792,61.65745692235538
95.0,6.5,1.0,0.0,4.115373113263707,8.03088,17.958526223964732,0.0,30.10477933722844,195.68106569198486,145.68106569198486,98.69529550860729,61.650234700133154
96.0,6.5,1.0,0.0,4.115373113263707,8.03088,17.958526223964732,0.0,30.10477933722844,195.68106569198486,145.68106569198486,98.68373351926664,61.64301247791092
97.0,6.5,1.0,0.0,4.115373113263707,8.03088,17.958526223964732,0.0,30.10477933722844,195.68106569198486,145.68106569198486,98.672171529926,61.63579025568872
98.0,6.5,1.0,0.0,4.115373113263707,8.03088,17.958526223964732,0.0,30.10477933722844,195.68106569198486,145.68106569198486,98.66060954058536,61.628568033466486
99.0,6.5,1.0,0.0,4.115373113263707,8.03088,17.958526223964732,0.0,30.10477933722844,195.68106569198486,145.68106569198486,98.6490475512447,61.62134581123584
100.0,6.5,1.0,0.0,4.115373113263707,8.03088,17.958526223964732,0.0,30.10477933722844,195.68106569198486,145.68106569198486,98.63748556190407,61.61412358902205
101.0,6.5,1.0,0.0,4.115373113263707,8.03088,17.958526223964732,0.0,30.10477933722844,195.68106569198486,145.68106569198486,98.62592357256342,61.60690136679982
102.0,6.5,1.0,0.0,4.115373113263707,8.03088,17.958526223964732,0.0,30.10477933722844,195.68106569198486,145.68106569198486,98.61436158322279,61.5996791445776
103.0,6.5,1.0,0.0,4.115373113263707,8.03088,17.958526223964732,0.0,30.10477933722844,195.68106569198486,145.68106569198486,98.60279959388214,61.592456922355375
104.0,6.5,1.0,0.0,4.115373113263707,8.03088,17.958526223964732,0.0,30.10477933722844,195.68106569198486,145.68106569198486,98.59123760454149,61.58523470012473
105.0,6.5,1.0,0.0,4.115373113263707,8.03088,17.958526223964732,0.0,30.10477933722844,195.68106569198486,145.68106569198486,98.57967561520086,61.57801247791093
106.0,6.5,1.0,0.0,4.115373113263707,8.03088,17.958526223964732,0.0,30.10477933722844,195.68106569198486,145.68106569198486,98.5681136258602,61.57079025568029
107.0,6.5,1.0,0.0,4.115373113263707,8.03088,17.958526223964732,0.0,30.10477933722844,195.68106569198486,145.68106569198486,98.55655163651957,61.56356803346649
108.0,6.5,1.0,0.0,4.115373113263707,8.03088,17.958526223964732,0.0,30.10477933722844,195.68106569198486,145.68106569198486,98.54498964717892,61.55634581124426
109.0,6.5,1.0,0.0,4.115373113263707,8.03088,17.958526223964732,0.0,30.10477933722844,195.68106569198486,145.68106569198486,98.53342765783829,61.54912358902204
110.0,6.5,1.0,0.0,4.115373113263707,8.03088,17.958526223964732,0.0,30.10477933722844,195.68106569198486,145.68106569198486,98.52186566849764,61.54190136679982
111.0,6.5,1.0,0.0,4.115373113263707,8.03088,17.958526223964732,0.0,30.10477933722844,195.68106569198486,145.68106569198486,98.51030367915699,61.53467914456918
112.0,6.5,1.0,0.0,4.115373113263707,8.03088,17.958526223964732,0.0,30.10477933722844,195.68106569198486,145.68106569198486,98.49874168981636,61.52745692235538
113.0,6.5,1.0,0.0,4.115373113263707,8.03088,17.958526223964732,0.0,30.10477933722844,195.68106569198486,145.68106569198486,98.4871797004757,61.52023470013315
114.0,6.5,1.0,0.0,4.115373113263707,8.03088,17.958526223964732,0.0,30.10477933722844,195.68106569198486,145.68106569198486,98.47561771113507,61.51301247791093
115.0,6.5,1.0,0.0,4.115373113263707,8.03088,17.958526223964732,0.0,30.10477933722844,195.68106569198486,145.68106569198486,98.46405572179442,61.505790255688694
116.0,6.5,1.0,0.0,4.115373113263707,8.03088,17.958526223964732,0.0,30.10477933722844,195.68106569198486,145.68106569198486,98.45249373245379,61.49856803346648
117.0,6.5,1.0,0.0,4.115373113263707,8.03088,17.958526223964732,0.0,30.10477933722844,195.68106569198486,145.68106569198486,98.44093174311314,61.491345811244265
118.0,6.5,1.0,0.0,4.115373113263707,8.03088,17.958526223964732,0.0,30.10477933722844,195.68106569198486,145.68106569198486,98.42936975377249,61.484123589013635
119.0,6.5,1.0,0.0,4.115373113263707,8.03088,17.958526223964732,0.0,30.10477933722844,195.68106569198486,145.68106569198486,98.41780776443186,61.47690136679981
120.0,6.5,1.0,0.0,4.115373113263707,8.03088,17.958526223964732,0.0,30.10477933722844,195.68106569198486,145.68106569198486,98.40624577509121,61.4696791445776
121.0,6.5,1.0,0.0,4.115373113263707,8.03088,17.958526223964732,0.0,30.10477933722844,195.68106569198486,145.68106569198486,98.39468378575057,61.46245692235537
122.0,6.5,1.0,0.0,4.115373113263707,8.03088,17.958526223964732,0.0,30.10477933722844,195.68106569198486,145.68106569198486,98.38312179640992,61.45523470013314
123.0,6.5,1.0,0.0,4.115373113263707,8.03088,17.958526223964732,0.0,30.10477933722844,195.68106569198486,145.68106569198486,98.37155980706927,61.44801247790254
124.0,6.5,1.0,0.0,4.115373113263707,8.03088,17.958526223964732,0.0,30.10477933722844,195.68106569198486,145.68106569198486,98.35999781772864,61.440790255688704
125.0,6.5,1.0,0.0,4.115373113263707,8.03088,17.958526223964732,0.0,30.10477933722844,195.68106569198486,145.68106569198486,98.34843582838799,61.43356803345808
